Parameters for equation: a1*exp(-t/tau1) + a2*exp(-t/tau2)
                     or  a*ar*exp(-t/tau1) + a*(1-ar)*exp(-t/tau2)
                   a*ar=a1 ,  a*(1-ar) = a2 ,  ar = a1/(a1+a2) ,  a = a1 + a2

   iat = 4.12237   t0 = 11000

 Experimental: 
   RMS(i_sim*iat vs i_exp) = 0.000353135   tau1 = 133.75   tau2 = 666.6   a = 1   ar = 0.42   a1 = 0.42   a2 = 0.58

 LevMar Fitting: 
   RMS(i_sim/a vs i_fit/a) = 1.45893e-07   tau1 = 282.786   tau2 = 638.981   a = 0.168529   ar = 0.00887294   a1 = 0.00149535   a2 = 0.167033

 t-t0  ,  i_exp/iat  ,  i_sim  ,  i_fit  ,  ,  i_exp  ,  i_sim*iat  ,  i_fit*iat  ,  ,  i_exp/iat/a  ,  i_sim/a  ,  i_fit/a
87.5 , 0.176353 , 0.146672 , 0.146755 ,  ,  0.726991 , 0.604637 , 0.604977 ,  ,  1.04643 , 0.87031 , 0.8708 , 
126.625 , 0.155886 , 0.137952 , 0.137962 ,  ,  0.642621 , 0.568688 , 0.56873 ,  ,  0.924983 , 0.818566 , 0.818625 , 
165.75 , 0.139228 , 0.129712 , 0.129701 ,  ,  0.573947 , 0.534721 , 0.534676 ,  ,  0.826135 , 0.769674 , 0.769608 , 
204.875 , 0.12549 , 0.121964 , 0.12194 ,  ,  0.517315 , 0.502781 , 0.50268 ,  ,  0.744619 , 0.723699 , 0.723554 , 
244 , 0.114006 , 0.114679 , 0.114647 ,  ,  0.469976 , 0.47275 , 0.472616 ,  ,  0.676479 , 0.680473 , 0.680279 , 
283.125 , 0.104276 , 0.10783 , 0.107793 ,  ,  0.429863 , 0.444515 , 0.444364 ,  ,  0.618741 , 0.639831 , 0.639614 , 
322.25 , 0.0959194 , 0.10139 , 0.101353 ,  ,  0.395415 , 0.417968 , 0.417814 ,  ,  0.569157 , 0.601619 , 0.601398 , 
361.375 , 0.0886512 , 0.0953355 , 0.0952997 ,  ,  0.365453 , 0.393008 , 0.39286 ,  ,  0.52603 , 0.565693 , 0.56548 , 
400.5 , 0.082254 , 0.0896428 , 0.0896105 ,  ,  0.339081 , 0.369541 , 0.369407 ,  ,  0.488071 , 0.531914 , 0.531722 , 
439.625 , 0.0765622 , 0.0842905 , 0.0842629 ,  ,  0.315618 , 0.347476 , 0.347362 ,  ,  0.454298 , 0.500155 , 0.499991 , 
478.75 , 0.0714493 , 0.0792582 , 0.0792361 ,  ,  0.29454 , 0.326732 , 0.326641 ,  ,  0.423959 , 0.470295 , 0.470164 , 
517.875 , 0.0668177 , 0.0745268 , 0.0745108 ,  ,  0.275447 , 0.307227 , 0.307161 ,  ,  0.396476 , 0.44222 , 0.442125 , 
557 , 0.0625918 , 0.0700783 , 0.0700687 ,  ,  0.258026 , 0.288889 , 0.288849 ,  ,  0.371401 , 0.415824 , 0.415767 , 
596.125 , 0.0587125 , 0.0658958 , 0.0658925 ,  ,  0.242035 , 0.271647 , 0.271633 ,  ,  0.348383 , 0.391006 , 0.390986 , 
635.25 , 0.0551334 , 0.0619634 , 0.0619662 ,  ,  0.22728 , 0.255436 , 0.255448 ,  ,  0.327145 , 0.367672 , 0.367689 , 
674.375 , 0.0518171 , 0.0582661 , 0.0582748 ,  ,  0.213609 , 0.240194 , 0.24023 ,  ,  0.307467 , 0.345734 , 0.345785 , 
713.5 , 0.0487339 , 0.0547898 , 0.054804 ,  ,  0.200899 , 0.225864 , 0.225922 ,  ,  0.289173 , 0.325107 , 0.325191 , 
752.625 , 0.0458593 , 0.0515214 , 0.0515407 ,  ,  0.189049 , 0.21239 , 0.21247 ,  ,  0.272115 , 0.305713 , 0.305827 , 
791.75 , 0.043173 , 0.0484485 , 0.0484722 ,  ,  0.177975 , 0.199722 , 0.19982 ,  ,  0.256176 , 0.287479 , 0.28762 , 
830.875 , 0.0406582 , 0.0455592 , 0.0455869 ,  ,  0.167608 , 0.187812 , 0.187926 ,  ,  0.241254 , 0.270335 , 0.270499 , 
870 , 0.0383003 , 0.0428428 , 0.0428738 ,  ,  0.157888 , 0.176614 , 0.176742 ,  ,  0.227263 , 0.254216 , 0.254401 , 
909.125 , 0.0360871 , 0.0402887 , 0.0403226 ,  ,  0.148764 , 0.166085 , 0.166225 ,  ,  0.21413 , 0.239061 , 0.239262 , 
948.25 , 0.0340076 , 0.0378874 , 0.0379235 ,  ,  0.140192 , 0.156186 , 0.156335 ,  ,  0.201791 , 0.224812 , 0.225027 , 
987.375 , 0.0320523 , 0.0356296 , 0.0356674 ,  ,  0.132131 , 0.146878 , 0.147034 ,  ,  0.190189 , 0.211416 , 0.21164 , 
1026.5 , 0.0302127 , 0.0335068 , 0.0335459 ,  ,  0.124548 , 0.138127 , 0.138288 ,  ,  0.179273 , 0.19882 , 0.199051 , 
1065.62 , 0.0284812 , 0.031511 , 0.0315507 ,  ,  0.11741 , 0.1299 , 0.130064 ,  ,  0.168999 , 0.186977 , 0.187212 , 
1104.75 , 0.0268507 , 0.0296345 , 0.0296744 ,  ,  0.110688 , 0.122164 , 0.122329 ,  ,  0.159324 , 0.175842 , 0.176079 , 
1143.87 , 0.0253149 , 0.0278702 , 0.0279098 ,  ,  0.104357 , 0.114891 , 0.115055 ,  ,  0.150211 , 0.165373 , 0.165609 , 
1183 , 0.023868 , 0.0262114 , 0.0262503 ,  ,  0.0983926 , 0.108053 , 0.108213 ,  ,  0.141626 , 0.15553 , 0.155762 , 
1222.12 , 0.0225045 , 0.0246517 , 0.0246896 ,  ,  0.092772 , 0.101623 , 0.10178 ,  ,  0.133535 , 0.146276 , 0.146501 , 
1261.25 , 0.0212195 , 0.0231853 , 0.0232219 ,  ,  0.0874747 , 0.0955785 , 0.095729 ,  ,  0.12591 , 0.137575 , 0.137792 , 
1300.37 , 0.0200083 , 0.0218066 , 0.0218414 ,  ,  0.0824816 , 0.089895 , 0.0900384 ,  ,  0.118723 , 0.129394 , 0.129601 , 
1339.5 , 0.0188666 , 0.0205104 , 0.0205431 ,  ,  0.0777749 , 0.0845513 , 0.0846863 ,  ,  0.111949 , 0.121702 , 0.121897 , 
1378.62 , 0.0177902 , 0.0192916 , 0.0193221 ,  ,  0.0733377 , 0.0795271 , 0.0796528 ,  ,  0.105562 , 0.114471 , 0.114652 , 
1417.75 , 0.0167754 , 0.0181457 , 0.0181737 ,  ,  0.0691544 , 0.0748033 , 0.0749186 ,  ,  0.0995403 , 0.107671 , 0.107837 , 
1456.87 , 0.0158186 , 0.0170683 , 0.0170936 ,  ,  0.0652103 , 0.0703619 , 0.0704661 ,  ,  0.0938631 , 0.101278 , 0.101428 , 
1496 , 0.0149165 , 0.0160554 , 0.0160777 ,  ,  0.0614915 , 0.0661861 , 0.0662784 ,  ,  0.0885103 , 0.0952678 , 0.0954006 , 
1535.12 , 0.014066 , 0.015103 , 0.0151223 ,  ,  0.0579851 , 0.06226 , 0.0623397 ,  ,  0.0834632 , 0.0896166 , 0.0897313 , 
1574.25 , 0.0132639 , 0.0142075 , 0.0142237 ,  ,  0.0546788 , 0.0585687 , 0.0586353 ,  ,  0.0787043 , 0.0843033 , 0.0843991 , 
1613.37 , 0.0125077 , 0.0133656 , 0.0133785 ,  ,  0.0515613 , 0.055098 , 0.0551511 ,  ,  0.0742169 , 0.0793077 , 0.079384 , 
1652.5 , 0.0117946 , 0.0125741 , 0.0125836 ,  ,  0.0486216 , 0.0518349 , 0.051874 ,  ,  0.0699855 , 0.0746107 , 0.0746671 , 
1691.62 , 0.0111222 , 0.0118298 , 0.0118359 ,  ,  0.0458496 , 0.0487669 , 0.0487918 ,  ,  0.0659955 , 0.0701946 , 0.0702305 , 
1730.75 , 0.0104881 , 0.0111301 , 0.0111326 ,  ,  0.0432357 , 0.0458823 , 0.0458928 ,  ,  0.0622331 , 0.0660426 , 0.0660577 , 
1769.87 , 0.00989017 , 0.0104722 , 0.0104712 ,  ,  0.0407709 , 0.0431702 , 0.0431661 ,  ,  0.0586853 , 0.0621388 , 0.062133 , 
1809 , 0.00932635 , 0.00985362 , 0.00984908 ,  ,  0.0384466 , 0.0406202 , 0.0406015 ,  ,  0.0553398 , 0.0584684 , 0.0584415 , 
1848.12 , 0.00879468 , 0.00927204 , 0.00926394 ,  ,  0.0362549 , 0.0382227 , 0.0381893 ,  ,  0.052185 , 0.0550175 , 0.0549694 , 
1887.25 , 0.00829333 , 0.00872523 , 0.00871357 ,  ,  0.0341882 , 0.0359686 , 0.0359205 ,  ,  0.0492102 , 0.0517729 , 0.0517037 , 
1926.37 , 0.00782056 , 0.00821112 , 0.00819591 ,  ,  0.0322392 , 0.0338493 , 0.0337865 ,  ,  0.0464049 , 0.0487224 , 0.0486321 , 
1965.5 , 0.00737475 , 0.00772775 , 0.00770901 ,  ,  0.0304014 , 0.0318566 , 0.0317794 ,  ,  0.0437596 , 0.0458542 , 0.045743 , 
2004.62 , 0.00695435 , 0.00727328 , 0.00725105 ,  ,  0.0286684 , 0.0299831 , 0.0298915 ,  ,  0.041265 , 0.0431575 , 0.0430255 , 
2043.75 , 0.00655791 , 0.00684599 , 0.00682029 ,  ,  0.0270341 , 0.0282217 , 0.0281158 ,  ,  0.0389127 , 0.040622 , 0.0404696 , 
2082.87 , 0.00618408 , 0.00644424 , 0.00641514 ,  ,  0.0254931 , 0.0265655 , 0.0264456 ,  ,  0.0366945 , 0.0382382 , 0.0380655 , 
2122 , 0.00583156 , 0.00606651 , 0.00603405 ,  ,  0.0240398 , 0.0250084 , 0.0248746 ,  ,  0.0346027 , 0.0359969 , 0.0358043 , 
2161.12 , 0.00549913 , 0.00571137 , 0.00567561 ,  ,  0.0226694 , 0.0235444 , 0.023397 ,  ,  0.0326302 , 0.0338896 , 0.0336774 , 
2200.25 , 0.00518566 , 0.00537746 , 0.00533847 ,  ,  0.0213772 , 0.0221679 , 0.0220071 ,  ,  0.0307702 , 0.0319083 , 0.0316769 , 
2239.37 , 0.00489005 , 0.00506352 , 0.00502136 ,  ,  0.0201586 , 0.0208737 , 0.0206999 ,  ,  0.0290161 , 0.0300454 , 0.0297952 , 
2278.5 , 0.0046113 , 0.00476835 , 0.00472308 ,  ,  0.0190095 , 0.0196569 , 0.0194703 ,  ,  0.0273621 , 0.028294 , 0.0280254 , 
2317.62 , 0.00434844 , 0.00449083 , 0.00444253 ,  ,  0.0179258 , 0.0185128 , 0.0183137 ,  ,  0.0258023 , 0.0266472 , 0.0263607 , 
2356.75 , 0.00410056 , 0.0042299 , 0.00417864 ,  ,  0.016904 , 0.0174372 , 0.0172259 ,  ,  0.0243315 , 0.025099 , 0.0247948 , 
2395.87 , 0.00386681 , 0.00398457 , 0.00393044 ,  ,  0.0159404 , 0.0164259 , 0.0162027 ,  ,  0.0229445 , 0.0236433 , 0.023322 , 
2435 , 0.00364638 , 0.00375391 , 0.00369697 ,  ,  0.0150317 , 0.015475 , 0.0152403 ,  ,  0.0216366 , 0.0222746 , 0.0219367 , 
2474.12 , 0.00343852 , 0.00353705 , 0.00347738 ,  ,  0.0141749 , 0.014581 , 0.014335 ,  ,  0.0204032 , 0.0209878 , 0.0206337 , 
2513.25 , 0.00324251 , 0.00333315 , 0.00327083 ,  ,  0.0133668 , 0.0137405 , 0.0134836 ,  ,  0.0192401 , 0.0197779 , 0.0194081 , 
2552.37 , 0.00305768 , 0.00314144 , 0.00307655 ,  ,  0.0126049 , 0.0129502 , 0.0126827 ,  ,  0.0181433 , 0.0186404 , 0.0182553 , 
2591.5 , 0.00288338 , 0.00296119 , 0.00289381 ,  ,  0.0118863 , 0.0122071 , 0.0119293 ,  ,  0.0171091 , 0.0175708 , 0.017171 , 
2630.62 , 0.00271901 , 0.00279172 , 0.00272192 ,  ,  0.0112088 , 0.0115085 , 0.0112208 ,  ,  0.0161338 , 0.0165652 , 0.0161511 , 
2669.75 , 0.00256402 , 0.00263239 , 0.00256025 ,  ,  0.0105698 , 0.0108517 , 0.0105543 ,  ,  0.0152141 , 0.0156198 , 0.0151918 , 
2708.87 , 0.00241786 , 0.00248258 , 0.00240818 ,  ,  0.0099673 , 0.0102341 , 0.0099274 ,  ,  0.0143468 , 0.0147309 , 0.0142894 , 
2748 , 0.00228003 , 0.00234172 , 0.00226514 ,  ,  0.00939912 , 0.00965345 , 0.00933775 ,  ,  0.013529 , 0.0138951 , 0.0134407 , 
2787.12 , 0.00215006 , 0.00220929 , 0.0021306 ,  ,  0.00886333 , 0.00910752 , 0.00878312 ,  ,  0.0127578 , 0.0131093 , 0.0126424 , 
2826.25 , 0.0020275 , 0.00208478 , 0.00200405 ,  ,  0.00835808 , 0.00859424 , 0.00826144 ,  ,  0.0120306 , 0.0123705 , 0.0118915 , 
2865.37 , 0.00191192 , 0.00196772 , 0.00188502 ,  ,  0.00788164 , 0.00811164 , 0.00777075 ,  ,  0.0113448 , 0.0116758 , 0.0111852 , 
2904.5 , 0.00180293 , 0.00185765 , 0.00177306 ,  ,  0.00743235 , 0.00765791 , 0.0073092 ,  ,  0.0106981 , 0.0110227 , 0.0105208 , 
2943.62 , 0.00170016 , 0.00175416 , 0.00166775 ,  ,  0.00700868 , 0.0072313 , 0.00687507 ,  ,  0.0100882 , 0.0104087 , 0.00989592 , 
2982.75 , 0.00160324 , 0.00165686 , 0.00156869 ,  ,  0.00660915 , 0.0068302 , 0.00646672 ,  ,  0.00951316 , 0.00983133 , 0.00930815 , 
3021.87 , 0.00151185 , 0.00156538 , 0.00147552 ,  ,  0.0062324 , 0.00645308 , 0.00608263 ,  ,  0.00897087 , 0.00928851 , 0.00875529 , 
3061 , 0.00142567 , 0.00147937 , 0.00138788 ,  ,  0.00587713 , 0.00609851 , 0.00572135 ,  ,  0.0084595 , 0.00877814 , 0.00823527 , 
3100.12 , 0.0013444 , 0.0013985 , 0.00130545 ,  ,  0.00554211 , 0.00576514 , 0.00538153 ,  ,  0.00797727 , 0.00829829 , 0.00774613 , 
3139.25 , 0.00126776 , 0.00132247 , 0.00122791 ,  ,  0.00522619 , 0.0054517 , 0.0050619 ,  ,  0.00752253 , 0.00784713 , 0.00728605 , 
3178.37 , 0.0011955 , 0.00125098 , 0.00115498 ,  ,  0.00492827 , 0.005157 , 0.00476125 ,  ,  0.00709372 , 0.00742295 , 0.0068533 , 
3217.5 , 0.00112735 , 0.00118377 , 0.00108638 ,  ,  0.00464734 , 0.00487993 , 0.00447845 ,  ,  0.00668935 , 0.00702413 , 0.00644625 , 
3256.62 , 0.00106308 , 0.00112057 , 0.00102185 ,  ,  0.00438242 , 0.00461942 , 0.00421246 ,  ,  0.00630803 , 0.00664916 , 0.00606338 , 
3295.75 , 0.00100248 , 0.00106116 , 0.000961162 ,  ,  0.00413261 , 0.00437449 , 0.00396226 ,  ,  0.00594844 , 0.0062966 , 0.00570325 , 
3334.87 , 0.000945338 , 0.0010053 , 0.000904074 ,  ,  0.00389703 , 0.0041442 , 0.00372693 ,  ,  0.00560936 , 0.00596513 , 0.00536451 , 
3374 , 0.00089145 , 0.000952773 , 0.000850378 ,  ,  0.00367489 , 0.00392768 , 0.00350557 ,  ,  0.0052896 , 0.00565347 , 0.00504589 , 
3413.12 , 0.000840634 , 0.000903391 , 0.00079987 ,  ,  0.0034654 , 0.00372411 , 0.00329736 ,  ,  0.00498807 , 0.00536045 , 0.00474619 , 
3452.25 , 0.000792714 , 0.000856961 , 0.000752362 ,  ,  0.00326786 , 0.00353271 , 0.00310151 ,  ,  0.00470373 , 0.00508495 , 0.0044643 , 
3491.37 , 0.000747526 , 0.000813307 , 0.000707677 ,  ,  0.00308158 , 0.00335275 , 0.0029173 ,  ,  0.0044356 , 0.00482592 , 0.00419914 , 
3530.5 , 0.000704914 , 0.000772264 , 0.000665645 ,  ,  0.00290592 , 0.00318355 , 0.00274403 ,  ,  0.00418275 , 0.00458238 , 0.00394974 , 
3569.62 , 0.000664731 , 0.000733674 , 0.00062611 ,  ,  0.00274027 , 0.00302447 , 0.00258105 ,  ,  0.00394432 , 0.0043534 , 0.00371515 , 
3608.75 , 0.000626839 , 0.000697392 , 0.000588922 ,  ,  0.00258406 , 0.00287491 , 0.00242775 ,  ,  0.00371948 , 0.00413812 , 0.00349449 , 
3647.87 , 0.000591106 , 0.000663279 , 0.000553944 ,  ,  0.00243676 , 0.00273428 , 0.00228356 ,  ,  0.00350745 , 0.0039357 , 0.00328694 , 
3687 , 0.000557411 , 0.000631206 , 0.000521043 ,  ,  0.00229785 , 0.00260206 , 0.00214793 ,  ,  0.00330751 , 0.00374539 , 0.00309172 , 
3726.12 , 0.000525636 , 0.000601051 , 0.000490096 ,  ,  0.00216687 , 0.00247775 , 0.00202036 ,  ,  0.00311897 , 0.00356646 , 0.00290809 , 
3765.25 , 0.000495673 , 0.000572698 , 0.000460988 ,  ,  0.00204335 , 0.00236087 , 0.00190036 ,  ,  0.00294118 , 0.00339822 , 0.00273536 , 
3804.37 , 0.000467417 , 0.000546041 , 0.000433608 ,  ,  0.00192687 , 0.00225098 , 0.00178749 ,  ,  0.00277352 , 0.00324005 , 0.0025729 , 
3843.5 , 0.000440773 , 0.000520978 , 0.000407854 ,  ,  0.00181703 , 0.00214766 , 0.00168133 ,  ,  0.00261541 , 0.00309133 , 0.00242009 , 
3882.62 , 0.000415647 , 0.000497413 , 0.00038363 ,  ,  0.00171345 , 0.00205052 , 0.00158147 ,  ,  0.00246632 , 0.0029515 , 0.00227635 , 
3921.75 , 0.000391953 , 0.000475258 , 0.000360845 ,  ,  0.00161578 , 0.00195919 , 0.00148754 ,  ,  0.00232573 , 0.00282004 , 0.00214115 , 
3960.87 , 0.00036961 , 0.000454427 , 0.000339413 ,  ,  0.00152367 , 0.00187331 , 0.00139919 ,  ,  0.00219316 , 0.00269643 , 0.00201398 , 
