Parameters for equation: a1*exp(-t/tau1) + a2*exp(-t/tau2)
                     or  a*ar*exp(-t/tau1) + a*(1-ar)*exp(-t/tau2)
                   a*ar=a1 ,  a*(1-ar) = a2 ,  ar = a1/(a1+a2) ,  a = a1 + a2

   iat = 2.70317   t0 = 11000

 Experimental: 
   RMS(i_sim*iat vs i_exp) = 9.56069e-05   tau1 = 133.75   tau2 = 666.6   a = 1   ar = 0.42   a1 = 0.42   a2 = 0.58

 LevMar Fitting: 
   RMS(i_sim/a vs i_fit/a) = 3.49621e-07   tau1 = 169.194   tau2 = 550.558   a = 0.274708   ar = 0   a1 = 0   a2 = 0.274708

 t-t0  ,  i_exp/iat  ,  i_sim  ,  i_fit  ,  ,  i_exp  ,  i_sim*iat  ,  i_fit*iat  ,  ,  i_exp/iat/a  ,  i_sim/a  ,  i_fit/a
140 , 0.228467 , 0.211715 , 0.213027 ,  ,  0.617584 , 0.572303 , 0.57585 ,  ,  0.831671 , 0.770693 , 0.775469 , 
178.6 , 0.205007 , 0.198589 , 0.198603 ,  ,  0.554169 , 0.53682 , 0.536859 ,  ,  0.746273 , 0.72291 , 0.722962 , 
217.2 , 0.185526 , 0.185422 , 0.185156 ,  ,  0.501509 , 0.501228 , 0.500509 ,  ,  0.675358 , 0.674979 , 0.674011 , 
255.8 , 0.169133 , 0.172915 , 0.172619 ,  ,  0.457197 , 0.46742 , 0.46662 ,  ,  0.615685 , 0.629452 , 0.628374 , 
294.4 , 0.155156 , 0.161199 , 0.160931 ,  ,  0.419413 , 0.43575 , 0.435025 ,  ,  0.564803 , 0.586803 , 0.585827 , 
333 , 0.143083 , 0.150264 , 0.150035 ,  ,  0.386778 , 0.40619 , 0.40557 ,  ,  0.520855 , 0.546997 , 0.546161 , 
371.6 , 0.132528 , 0.140068 , 0.139876 ,  ,  0.358245 , 0.378629 , 0.378109 ,  ,  0.482432 , 0.509881 , 0.509181 , 
410.2 , 0.123194 , 0.130564 , 0.130405 ,  ,  0.333015 , 0.352936 , 0.352508 ,  ,  0.448456 , 0.475282 , 0.474705 , 
448.8 , 0.114857 , 0.121704 , 0.121575 ,  ,  0.310477 , 0.328988 , 0.328639 ,  ,  0.418105 , 0.443032 , 0.442563 , 
487.4 , 0.107341 , 0.113447 , 0.113344 ,  ,  0.29016 , 0.306666 , 0.306388 ,  ,  0.390745 , 0.412973 , 0.412597 , 
526 , 0.100512 , 0.10575 , 0.105669 ,  ,  0.271701 , 0.28586 , 0.285642 ,  ,  0.365886 , 0.384955 , 0.384661 , 
564.6 , 0.094265 , 0.0985759 , 0.0985145 ,  ,  0.254815 , 0.266468 , 0.266302 ,  ,  0.343147 , 0.358839 , 0.358615 , 
603.2 , 0.0885181 , 0.0918891 , 0.0918441 ,  ,  0.23928 , 0.248392 , 0.24827 ,  ,  0.322227 , 0.334498 , 0.334334 , 
641.8 , 0.0832057 , 0.0856565 , 0.0856254 ,  ,  0.224919 , 0.231544 , 0.23146 ,  ,  0.302888 , 0.311809 , 0.311696 , 
680.4 , 0.0782755 , 0.0798471 , 0.0798278 ,  ,  0.211592 , 0.215841 , 0.215788 ,  ,  0.284941 , 0.290662 , 0.290592 , 
719 , 0.0736851 , 0.0744323 , 0.0744227 ,  ,  0.199183 , 0.201203 , 0.201177 ,  ,  0.268231 , 0.270951 , 0.270916 , 
757.6 , 0.0693997 , 0.0693853 , 0.0693836 ,  ,  0.187599 , 0.18756 , 0.187556 ,  ,  0.252631 , 0.252579 , 0.252572 , 
796.2 , 0.0653904 , 0.064681 , 0.0646857 ,  ,  0.176762 , 0.174844 , 0.174856 ,  ,  0.238036 , 0.235454 , 0.235471 , 
834.8 , 0.061633 , 0.0602963 , 0.0603058 ,  ,  0.166605 , 0.162991 , 0.163017 ,  ,  0.224358 , 0.219493 , 0.219527 , 
873.4 , 0.0581066 , 0.0562093 , 0.0562226 ,  ,  0.157072 , 0.151944 , 0.151979 ,  ,  0.211522 , 0.204615 , 0.204663 , 
912 , 0.0547934 , 0.0524 , 0.0524158 ,  ,  0.148116 , 0.141646 , 0.141689 ,  ,  0.199461 , 0.190748 , 0.190806 , 
950.6 , 0.0516776 , 0.0488493 , 0.0488667 ,  ,  0.139694 , 0.132048 , 0.132095 ,  ,  0.188119 , 0.177823 , 0.177886 , 
989.2 , 0.0487455 , 0.0455398 , 0.045558 ,  ,  0.131767 , 0.123102 , 0.123151 ,  ,  0.177445 , 0.165776 , 0.165842 , 
1027.8 , 0.0459844 , 0.0424551 , 0.0424733 ,  ,  0.124304 , 0.114763 , 0.114813 ,  ,  0.167394 , 0.154546 , 0.154613 , 
1066.4 , 0.0433834 , 0.0395799 , 0.0395975 ,  ,  0.117273 , 0.106991 , 0.107039 ,  ,  0.157926 , 0.14408 , 0.144144 , 
1105 , 0.0409322 , 0.0368999 , 0.0369163 ,  ,  0.110647 , 0.0997469 , 0.0997912 ,  ,  0.149003 , 0.134324 , 0.134384 , 
1143.6 , 0.0386215 , 0.034402 , 0.0344168 ,  ,  0.104401 , 0.0929946 , 0.0930344 ,  ,  0.140591 , 0.125231 , 0.125285 , 
1182.2 , 0.0364428 , 0.0320738 , 0.0320864 ,  ,  0.0985111 , 0.0867009 , 0.0867351 ,  ,  0.13266 , 0.116756 , 0.116802 , 
1220.8 , 0.0343881 , 0.0299036 , 0.0299139 ,  ,  0.0929569 , 0.0808346 , 0.0808623 ,  ,  0.125181 , 0.108856 , 0.108893 , 
1259.4 , 0.0324501 , 0.0278809 , 0.0278884 ,  ,  0.0877182 , 0.0753668 , 0.0753872 ,  ,  0.118126 , 0.101493 , 0.10152 , 
1298 , 0.0306219 , 0.0259955 , 0.0260001 ,  ,  0.0827764 , 0.0702703 , 0.0702828 ,  ,  0.111471 , 0.0946296 , 0.0946465 , 
1336.6 , 0.0288973 , 0.0242382 , 0.0242397 ,  ,  0.0781143 , 0.06552 , 0.065524 ,  ,  0.105193 , 0.0882326 , 0.088238 , 
1375.2 , 0.0272701 , 0.0226002 , 0.0225984 ,  ,  0.0737158 , 0.0610922 , 0.0610874 ,  ,  0.0992695 , 0.08227 , 0.0822635 , 
1413.8 , 0.0257348 , 0.0210735 , 0.0210683 ,  ,  0.0695657 , 0.0569653 , 0.0569512 ,  ,  0.0936807 , 0.0767124 , 0.0766935 , 
1452.4 , 0.0242862 , 0.0196505 , 0.0196418 ,  ,  0.0656497 , 0.0531186 , 0.0530951 ,  ,  0.0884073 , 0.0715322 , 0.0715006 , 
1491 , 0.0229192 , 0.0183241 , 0.0183118 ,  ,  0.0619546 , 0.0495331 , 0.0495001 ,  ,  0.0834313 , 0.0667039 , 0.0666593 , 
1529.6 , 0.0216293 , 0.0170878 , 0.017072 ,  ,  0.0584678 , 0.0461912 , 0.0461484 ,  ,  0.0787358 , 0.0622035 , 0.0621459 , 
1568.2 , 0.0204121 , 0.0159354 , 0.015916 ,  ,  0.0551775 , 0.0430763 , 0.0430238 ,  ,  0.0743048 , 0.0580087 , 0.057938 , 
1606.8 , 0.0192635 , 0.0148614 , 0.0148384 ,  ,  0.0520724 , 0.0401729 , 0.0401106 ,  ,  0.0701235 , 0.0540989 , 0.0540151 , 
1645.4 , 0.0181795 , 0.0138603 , 0.0138337 ,  ,  0.0491423 , 0.0374667 , 0.0373948 ,  ,  0.0661776 , 0.0504546 , 0.0503577 , 
1684 , 0.0171566 , 0.0129271 , 0.012897 ,  ,  0.0463771 , 0.0349443 , 0.0348628 ,  ,  0.0624538 , 0.0470578 , 0.0469481 , 
1722.6 , 0.0161912 , 0.0120574 , 0.0120237 ,  ,  0.0437676 , 0.0325932 , 0.0325023 ,  ,  0.0589397 , 0.0438917 , 0.0437692 , 
1761.2 , 0.0152802 , 0.0112467 , 0.0112096 ,  ,  0.041305 , 0.0304018 , 0.0303016 ,  ,  0.0556234 , 0.0409406 , 0.0408057 , 
1799.8 , 0.0144205 , 0.0104911 , 0.0104506 ,  ,  0.038981 , 0.0283592 , 0.0282499 ,  ,  0.0524938 , 0.03819 , 0.0380427 , 
1838.4 , 0.0136091 , 0.00978679 , 0.00974303 ,  ,  0.0367877 , 0.0264554 , 0.0263371 ,  ,  0.0495403 , 0.0356262 , 0.0354669 , 
1877 , 0.0128434 , 0.00913032 , 0.00908333 ,  ,  0.0347179 , 0.0246808 , 0.0245538 ,  ,  0.046753 , 0.0332365 , 0.0330654 , 
1915.6 , 0.0121208 , 0.00851845 , 0.00846831 ,  ,  0.0327646 , 0.0230268 , 0.0228913 ,  ,  0.0441225 , 0.0310091 , 0.0308266 , 
1954.2 , 0.0114388 , 0.00794812 , 0.00789492 ,  ,  0.0309212 , 0.0214851 , 0.0213413 ,  ,  0.0416401 , 0.028933 , 0.0287394 , 
1992.8 , 0.0107953 , 0.00741654 , 0.00736036 ,  ,  0.0291815 , 0.0200482 , 0.0198963 ,  ,  0.0392973 , 0.0269979 , 0.0267934 , 
2031.4 , 0.0101879 , 0.00692105 , 0.006862 ,  ,  0.0275397 , 0.0187088 , 0.0185492 ,  ,  0.0370863 , 0.0251942 , 0.0249793 , 
2070 , 0.00961471 , 0.00645922 , 0.00639738 ,  ,  0.0259902 , 0.0174604 , 0.0172932 ,  ,  0.0349998 , 0.0235131 , 0.0232879 , 
2108.6 , 0.00907377 , 0.00602876 , 0.00596421 ,  ,  0.024528 , 0.0162968 , 0.0161223 ,  ,  0.0330306 , 0.0219461 , 0.0217111 , 
2147.2 , 0.00856327 , 0.00562753 , 0.00556038 ,  ,  0.023148 , 0.0152122 , 0.0150307 ,  ,  0.0311723 , 0.0204855 , 0.0202411 , 
2185.8 , 0.00808149 , 0.00525355 , 0.00518389 ,  ,  0.0218456 , 0.0142013 , 0.014013 ,  ,  0.0294185 , 0.0191241 , 0.0188706 , 
2224.4 , 0.00762681 , 0.00490497 , 0.00483289 ,  ,  0.0206166 , 0.013259 , 0.0130641 ,  ,  0.0277634 , 0.0178552 , 0.0175929 , 
2263 , 0.00719771 , 0.00458007 , 0.00450566 ,  ,  0.0194567 , 0.0123807 , 0.0121796 ,  ,  0.0262014 , 0.0166725 , 0.0164017 , 
2301.6 , 0.00679276 , 0.00427723 , 0.00420059 ,  ,  0.018362 , 0.0115621 , 0.0113549 ,  ,  0.0247272 , 0.0155701 , 0.0152911 , 
2340.2 , 0.00641059 , 0.00399496 , 0.00391617 ,  ,  0.0173289 , 0.0107991 , 0.0105861 ,  ,  0.023336 , 0.0145426 , 0.0142558 , 
2378.8 , 0.00604992 , 0.00373187 , 0.00365101 ,  ,  0.016354 , 0.0100879 , 0.0098693 ,  ,  0.0220231 , 0.0135849 , 0.0132905 , 
2417.4 , 0.00570955 , 0.00348664 , 0.0034038 ,  ,  0.0154339 , 0.00942498 , 0.00920105 ,  ,  0.0207841 , 0.0126922 , 0.0123906 , 
2456 , 0.00538832 , 0.00325806 , 0.00317333 ,  ,  0.0145656 , 0.00880711 , 0.00857806 ,  ,  0.0196147 , 0.0118601 , 0.0115517 , 
2494.6 , 0.00508517 , 0.00304501 , 0.00295847 ,  ,  0.0137461 , 0.0082312 , 0.00799724 ,  ,  0.0185112 , 0.0110846 , 0.0107695 , 
2533.2 , 0.00479907 , 0.00284643 , 0.00275815 ,  ,  0.0129727 , 0.0076944 , 0.00745575 ,  ,  0.0174697 , 0.0103617 , 0.0100403 , 
2571.8 , 0.00452907 , 0.00266134 , 0.0025714 ,  ,  0.0122429 , 0.00719406 , 0.00695093 ,  ,  0.0164869 , 0.0096879 , 0.00936048 , 
2610.4 , 0.00427426 , 0.00248882 , 0.00239729 ,  ,  0.0115541 , 0.00672771 , 0.00648029 ,  ,  0.0155593 , 0.00905988 , 0.00872669 , 
2649 , 0.00403378 , 0.00232802 , 0.00223497 ,  ,  0.010904 , 0.00629303 , 0.00604151 ,  ,  0.0146839 , 0.00847452 , 0.00813581 , 
2687.6 , 0.00380684 , 0.00217813 , 0.00208364 ,  ,  0.0102905 , 0.00588787 , 0.00563244 ,  ,  0.0138578 , 0.00792891 , 0.00758494 , 
2726.2 , 0.00359266 , 0.00203843 , 0.00194256 ,  ,  0.00971158 , 0.00551022 , 0.00525108 ,  ,  0.0130781 , 0.00742035 , 0.00707137 , 
2764.8 , 0.00339053 , 0.00190821 , 0.00181103 ,  ,  0.0091652 , 0.00515823 , 0.00489553 ,  ,  0.0123423 , 0.00694634 , 0.00659257 , 
2803.4 , 0.00319978 , 0.00178684 , 0.00168841 ,  ,  0.00864955 , 0.00483014 , 0.00456406 ,  ,  0.0116479 , 0.00650452 , 0.00614619 , 
2842 , 0.00301976 , 0.00167372 , 0.00157409 ,  ,  0.00816292 , 0.00452434 , 0.00425503 ,  ,  0.0109926 , 0.00609271 , 0.00573004 , 
2880.6 , 0.00284986 , 0.00156827 , 0.00146751 ,  ,  0.00770366 , 0.00423931 , 0.00396692 ,  ,  0.0103742 , 0.00570887 , 0.00534206 , 
2919.2 , 0.00268952 , 0.00146999 , 0.00136814 ,  ,  0.00727025 , 0.00397363 , 0.00369832 ,  ,  0.00979049 , 0.0053511 , 0.00498035 , 
2957.8 , 0.00253821 , 0.00137838 , 0.00127551 ,  ,  0.00686121 , 0.003726 , 0.00344791 ,  ,  0.00923967 , 0.00501762 , 0.00464314 , 
2996.4 , 0.00239541 , 0.00129299 , 0.00118914 ,  ,  0.00647519 , 0.00349519 , 0.00321446 ,  ,  0.00871983 , 0.0047068 , 0.00432875 , 
3035 , 0.00226064 , 0.00121341 , 0.00110863 ,  ,  0.00611089 , 0.00328005 , 0.00299681 ,  ,  0.00822924 , 0.00441708 , 0.00403566 , 
3073.6 , 0.00213345 , 0.00113923 , 0.00103356 ,  ,  0.00576709 , 0.00307952 , 0.0027939 ,  ,  0.00776626 , 0.00414705 , 0.00376241 , 
3112.2 , 0.00201342 , 0.00107008 , 0.00096358 ,  ,  0.00544262 , 0.00289262 , 0.00260472 ,  ,  0.00732932 , 0.00389535 , 0.00350766 , 
3150.8 , 0.00190014 , 0.00100564 , 0.000898337 ,  ,  0.00513642 , 0.00271841 , 0.00242836 ,  ,  0.00691696 , 0.00366075 , 0.00327015 , 
3189.4 , 0.00179324 , 0.000945565 , 0.000837511 ,  ,  0.00484743 , 0.00255603 , 0.00226394 ,  ,  0.00652781 , 0.00344208 , 0.00304873 , 
3228 , 0.00169235 , 0.000889575 , 0.000780804 ,  ,  0.00457471 , 0.00240467 , 0.00211065 ,  ,  0.00616055 , 0.00323826 , 0.00284231 , 
3266.6 , 0.00159714 , 0.000837387 , 0.000727936 ,  ,  0.00431733 , 0.0022636 , 0.00196774 ,  ,  0.00581395 , 0.00304828 , 0.00264986 , 
3305.2 , 0.00150728 , 0.000788744 , 0.000678648 ,  ,  0.00407444 , 0.00213211 , 0.0018345 ,  ,  0.00548685 , 0.00287121 , 0.00247044 , 
3343.8 , 0.00142248 , 0.000743405 , 0.000632697 ,  ,  0.0038452 , 0.00200955 , 0.00171029 ,  ,  0.00517815 , 0.00270617 , 0.00230316 , 
3382.4 , 0.00134245 , 0.000701145 , 0.000589858 ,  ,  0.00362887 , 0.00189532 , 0.00159449 ,  ,  0.00488682 , 0.00255233 , 0.00214722 , 
3421 , 0.00126692 , 0.000661755 , 0.000549919 ,  ,  0.0034247 , 0.00178884 , 0.00148652 ,  ,  0.00461188 , 0.00240894 , 0.00200183 , 
3459.6 , 0.00119564 , 0.00062504 , 0.000512684 ,  ,  0.00323203 , 0.00168959 , 0.00138587 ,  ,  0.00435241 , 0.00227529 , 0.00186629 , 
3498.2 , 0.00112837 , 0.000590819 , 0.000477971 ,  ,  0.00305019 , 0.00159709 , 0.00129204 ,  ,  0.00410754 , 0.00215072 , 0.00173992 , 
3536.8 , 0.00106489 , 0.000558923 , 0.000445607 ,  ,  0.00287858 , 0.00151086 , 0.00120455 ,  ,  0.00387645 , 0.00203461 , 0.00162211 , 
3575.4 , 0.00100498 , 0.000529192 , 0.000415436 ,  ,  0.00271663 , 0.0014305 , 0.00112299 ,  ,  0.00365835 , 0.00192638 , 0.00151228 , 
3614 , 0.000948437 , 0.000501481 , 0.000387307 ,  ,  0.00256379 , 0.00135559 , 0.00104696 ,  ,  0.00345253 , 0.00182551 , 0.00140989 , 
3652.6 , 0.000895077 , 0.000475652 , 0.000361082 ,  ,  0.00241955 , 0.00128577 , 0.000976068 ,  ,  0.00325829 , 0.00173148 , 0.00131442 , 
3691.2 , 0.000844719 , 0.000451577 , 0.000336634 ,  ,  0.00228342 , 0.00122069 , 0.000909979 ,  ,  0.00307497 , 0.00164384 , 0.00122543 , 
3729.8 , 0.000797194 , 0.000429137 , 0.000313841 ,  ,  0.00215495 , 0.00116003 , 0.000848365 ,  ,  0.00290197 , 0.00156216 , 0.00114245 , 
3768.4 , 0.000752343 , 0.000408221 , 0.000292591 ,  ,  0.00203371 , 0.00110349 , 0.000790923 ,  ,  0.0027387 , 0.00148602 , 0.0010651 , 
3807 , 0.000710015 , 0.000388726 , 0.00027278 ,  ,  0.00191929 , 0.00105079 , 0.00073737 ,  ,  0.00258462 , 0.00141505 , 0.000992981 , 
3845.6 , 0.000670069 , 0.000370555 , 0.00025431 ,  ,  0.00181131 , 0.00100167 , 0.000687443 ,  ,  0.00243921 , 0.00134891 , 0.000925747 , 
3884.2 , 0.00063237 , 0.000353618 , 0.000237091 ,  ,  0.00170941 , 0.00095589 , 0.000640897 ,  ,  0.00230197 , 0.00128725 , 0.000863065 , 
3922.8 , 0.000596792 , 0.000337831 , 0.000221037 ,  ,  0.00161323 , 0.000913216 , 0.000597502 ,  ,  0.00217246 , 0.00122978 , 0.000804627 , 
3961.4 , 0.000563216 , 0.000323117 , 0.000206071 ,  ,  0.00152247 , 0.000873441 , 0.000557046 ,  ,  0.00205024 , 0.00117622 , 0.000750147 , 
